mem,temp,acc,rot,class
626.05,28.7,591.048540266,6.886994645,1
625.966666667,28.7,591.221132836,6.920295542,1
625.9,28.7,590.979170836,6.425418969,1
625.766666667,28.7,591.115861837,6.386339678,1
625.65,28.7,590.792214373,6.260892923,1
625.516666667,28.7066666667,591.036207171,6.21234133,1
625.35,28.7133333333,591.427330218,6.210931476,1
625.183333333,28.72,591.208193688,6.215633171,1
625.083333333,28.7266666667,591.193093601,6.508556272,1
624.35,28.7333333333,591.039986657,6.451705956,1
624.05,28.74,591.003426165,6.741040565,1
623.716666667,28.7466666667,590.972079986,6.786014862,1
623,28.7533333333,590.832443199,6.775016798,1
622.15,28.76,590.833357878,6.798342005,1
621.35,28.7666666667,590.857271298,6.954349529,1
620.45,28.7733333333,590.975454019,6.914881963,1
619.766666667,28.78,590.458403977,7.138379827,1
619.166666667,28.7866666667,592.04032361,7.490456337,1
618.666666667,28.7933333333,591.868380989,7.475662582,1
618.466666667,28.8,591.591720491,7.338706117,1
618.266666667,28.8066666667,591.357067467,7.262749898,1
618.05,28.8133333333,591.25011988,7.246796764,1
617.866666667,28.82,591.334331591,7.226613903,1
617.666666667,28.8266666667,591.141958333,7.075921315,1
617.483333333,28.8333333333,590.97687577,7.049655622,1
617.3,28.84,590.957158952,7.007609955,1
617.133333333,28.8466666667,590.769792959,7.021937092,1
616.95,28.8533333333,590.400846703,6.924006563,1
616.766666667,28.86,590.133452695,6.799970967,1
616.533333333,28.8666666667,589.963163454,6.7703155,1
616.683333333,28.8733333333,589.805365289,6.743666037,1
616.783333333,28.88,589.754493841,6.735202196,1
616.733333333,28.8866666667,589.632996462,6.730401776,1
616.683333333,28.8933333333,589.629191311,6.719968321,1
616.533333333,28.9,589.629523595,6.715688569,1
616.35,28.9066666667,589.5907517,6.708549517,1
616.15,28.9133333333,589.469169166,6.697348051,1
615.933333333,28.92,589.322072603,6.68289655,1
615.683333333,28.9266666667,589.047949877,6.66255454,1
615.433333333,28.9333333333,588.87804547,6.652680402,1
615.2,28.94,589.161203939,6.561087366,1
614.983333333,28.9466666667,589.261961178,6.484361219,1
614.766666667,28.9533333333,589.394400348,6.340291196,1
614.55,28.96,588.991989639,5.88215235,1
614.333333333,28.9666666667,588.75421273,5.815983636,1
614.116666667,28.9733333333,588.730170987,5.587495314,1
613.883333333,28.98,588.583986463,5.543014122,1
613.7,28.9866666667,588.770492613,5.501888705,1
613.516666667,28.9933333333,588.956994022,5.282480313,1
613.25,29,589.029011204,5.209018509,1
612.95,29.0066666667,589.018645377,5.236140572,1
614.55,29.0133333333,588.872324615,5.165689085,1
616.016666667,29.02,589.223170021,4.824839428,1
617.216666667,29.0266666667,589.56312332,4.661961694,1
618.383333333,29.0333333333,589.74252939,4.574905878,1
619.383333333,29.04,590.11201035,4.484556705,1
620.3,29.0466666667,590.821459986,4.116995331,1
621.083333333,29.0533333333,590.302098707,3.655629611,1
621.783333333,29.06,590.153296333,3.605893787,1
622.416666667,29.0666666667,589.75115218,3.435443041,1
623,29.0733333333,589.677781092,3.345466276,1
623.6,29.08,589.221131103,3.186770695,1
624.2,29.0866666667,588.747322785,3.168683342,1
624.866666667,29.0933333333,588.376226571,3.128587771,1
625.516666667,29.1,588.216594472,3.123141263,1
626.166666667,29.1,588.103530634,3.11174881,1
626.85,29.1,587.923035224,3.062060405,1
627.516666667,29.1,587.181758119,2.900076842,1
628.133333333,29.1,587.167773177,2.328494488,1
629.383333333,29.1,587.115060734,2.322738044,1
630.183333333,29.1,587.012241541,1.927057706,1
630.85,29.1,587.119634461,1.740416163,1
631.533333333,29.1,587.069183013,1.731364573,1
632.233333333,29.1,586.872142299,1.700354814,1
632.916666667,29.1,586.523754183,1.47895792,1
633.65,29.1,586.252615709,1.440549909,1
634.216666667,29.1,586.54567713,0.977110022,1
634.683333333,29.1,584.954316535,0.580803304,1
635.033333333,29.1,585.031770581,0.580480613,1
635.083333333,29.1,584.993816011,0.596068498,1
635.166666667,29.1,584.975750505,0.742229325,1
635.25,29.1,584.957624157,0.744437274,1
635.3,29.1,584.9758807,0.751145059,1
635.366666667,29.1,584.995167675,0.755179979,1
635.416666667,29.1,584.994301988,0.754173146,1
635.466666667,29.1,584.994377467,0.742880021,1
635.5,29.1,584.976229137,0.713267979,1
635.533333333,29.1,584.995406032,0.696761877,1
635.566666667,29.1,585.032686185,0.696859245,1
635.6,29.1,585.031651057,0.694219951,1
635.633333333,29.1,584.993450818,0.689482615,1
635.666666667,29.1,584.97433043,0.688600379,1
635.683333333,29.1,584.954251357,0.687571387,1
635.716666667,29.1,584.95321825,0.689510297,1
635.75,29.1,584.952241545,0.688827113,1
635.783333333,29.1,585.009660554,0.68906926,1
635.833333333,29.1,585.027846276,0.697967925,1
635.883333333,29.1,585.066092005,0.698808723,1
635.933333333,29.1,585.064115783,0.700520928,1
635.983333333,29.1,585.064115783,0.699091847,1
636.033333333,29.1,585.086162554,0.701376775,1
636.066666667,29.1,585.107385232,0.701898304,1
636.1,29.1,585.126564654,0.703695555,1
636.133333333,29.1,585.165690766,0.703695555,1
636.166666667,29.1,585.146568536,0.669655911,1
636.2,29.1,585.14570271,0.662757014,1
636.25,29.1,585.164674604,0.661866409,1
636.283333333,29.1,585.146640978,0.663675128,1
636.316666667,29.1,585.185901242,0.665496612,1
636.35,29.1,585.242200989,0.664566753,1
636.383333333,29.1,585.242388629,0.531957611,1
636.433333333,29.1,585.26158434,0.531658415,1
636.45,29.1,585.280648331,0.532084026,1
636.466666667,29.1,585.319868561,0.532150078,1
636.483333333,29.1,585.358185885,0.433280209,1
636.416666667,29.1,585.358185885,0.434943469,1
636.35,29.1,585.377157779,0.43577247,1
636.283333333,29.1,585.396202991,0.449267372,1
636.25,29.1,585.37821313,0.459502497,1
636.233333333,29.1,585.396260975,0.469649689,1
636.216666667,29.1,585.376235087,0.419397853,1
636.183333333,29.1,585.33792245,0.417644426,1
636.116666667,29.1,585.359152059,0.37367806,1
636.05,29.1,585.418285915,0.369251029,1
636.016666667,29.1,585.398769021,0.354090055,1
635.983333333,29.1,585.400797781,0.354586668,1
635.95,29.1,585.441086471,0.355025258,1
635.916666667,29.1,585.442175975,0.353839473,1
635.833333333,29.1,585.461298389,0.354553241,1
635.75,29.1,585.440204926,0.355037623,1
635.683333333,29.1,585.401891671,0.355146878,1
635.6,29.1,585.401741351,0.355482742,1
635.516666667,29.1,585.384649613,0.35505178,1
635.466666667,29.1,585.403715625,0.354029042,1
635.416666667,29.1,585.402661673,0.353546934,1
635.366666667,29.1,585.422835204,0.353131141,1
635.316666667,29.1,585.461001563,0.354187285,1
635.383333333,29.1,586.911200428,0.849464666,1
635.433333333,29.1,586.050841479,1.373781146,1
635.5,29.1,586.576694847,1.672002489,1
635.55,29.1,586.188470851,1.733272945,1
635.616666667,29.1,586.453966468,2.020805464,1
635.683333333,29.1,586.831846517,2.135468208,1
635.75,29.1,587.017438828,2.186409607,1
635.833333333,29.1,586.934479031,2.211880028,1
635.333333333,29.1,587.026156859,2.271039824,1
635.1,29.1,587.181321983,2.386289666,1
634.916666667,29.1,587.143310676,2.421591619,1
634.816666667,29.1,587.806330199,3.241712409,1
634.766666667,29.1,588.406511976,3.432023222,1
634.716666667,29.1,588.916926603,4.101580938,1
634.666666667,29.1,588.842181694,4.177809209,1
634.216666667,29.1,589.004961821,4.277087508,1
634.183333333,29.1,589.17612404,4.304697813,1
634.25,29.1,589.13965446,4.346388099,1
634.35,29.1,589.15827913,4.489989146,1
634.366666667,29.1,589.390300163,4.535427127,1
634.333333333,29.1,589.417912289,4.605427517,1
634.3,29.1,589.346670487,4.628299913,1
634.266666667,29.1,589.477071477,4.649786881,1
634.183333333,29.1,589.587703282,4.716091971,1
634.1,29.1,589.692828201,4.737755763,1
634.016666667,29.1,589.819572479,4.754437438,1
633.916666667,29.1,590.081343056,4.804405981,1
633.833333333,29.1,590.040339308,5.023006888,1
633.75,29.1,590.158088404,5.042051763,1
633.65,29.1,590.218779182,5.067864259,1
633.583333333,29.1,590.425399147,5.094822956,1
633.616666667,29.1,590.590397225,5.127918314,1
633.566666667,29.1,590.817920616,5.137258878,1
633.5,29.1,590.879466375,5.147659912,1
633.433333333,29.1,591.153454296,5.234399892,1
633.35,29.1,591.396585804,5.285162984,1
633.266666667,29.1,591.466154876,5.354265146,1
633.183333333,29.1,591.64409834,5.358401,1
633.2,29.1,591.826109873,5.364570923,1
633.216666667,29.1,592.051219991,5.529954724,1
633.216666667,29.1,592.0219354,5.532956612,1
633.216666667,29.1,592.000732872,5.588213402,1
633.2,29.1,592.051978982,5.59157833,1
633.183333333,29.1,592.271209753,5.604366917,1
633.15,29.1,592.48042652,5.656475954,1
633.133333333,29.1,592.719702007,5.697013412,1
633.116666667,29.1,592.851206785,5.890100746,1
633.116666667,29.1,592.936753695,5.920616419,1
633.133333333,29.1,593.04005114,5.943505681,1
633.2,29.1,593.17291021,6.140320122,1
633.383333333,29.1,593.100826575,6.198106414,1
633.6,29.1,593.298825259,6.232319295,1
633.866666667,29.1,593.36358508,6.263322394,1
634.2,29.1,593.082564362,6.344228658,1
634.55,29.1,593.213716063,6.352002769,1
634.916666667,29.1,593.339907198,6.416529248,1
635.283333333,29.1,593.371153596,6.436588483,1
635.7,29.1,593.597959624,6.442471764,1
636.083333333,29.1,593.769462379,6.532011169,1
636.45,29.1,593.968229652,7.45727664,1
636.9,29.1,592.276659436,7.026170112,1
636.9,29.1,593.354913636,6.558561564,1
637.05,29.1,593.045580303,6.286096434,1
637.166666667,29.1,593.698494243,6.104554637,1
637.266666667,29.1,593.631732649,5.908014783,1
637.366666667,29.1,593.469527085,5.840296441,1
637.466666667,29.1,593.359828344,5.805519503,1
637.55,29.1,593.242916498,5.951600603,1
638.233333333,29.1,593.283797507,5.907638704,1
638.666666667,29.1,593.244869078,5.909477637,1
639.05,29.1,593.476060449,5.879451343,1
639.4,29.1,593.030589123,5.077285455,1
639.683333333,29.1,592.599676318,4.920065399,1
639.966666667,29.1,591.60735135,4.379732949,1
640.266666667,29.1,591.824520452,4.349264315,1
641.016666667,29.1,591.961162128,4.312002717,1
641.283333333,29.1,591.109889558,4.419286079,1
641.616666667,29.1,591.724963401,4.443551123,1
641.65,29.1,591.59563633,4.347896561,1
641.75,29.1,591.457844909,4.317809229,1
641.9,29.1,591.563161064,4.315945937,1
641.966666667,29.1,591.980269604,4.329480147,1
642.033333333,29.1,591.807344938,4.500212657,1
642.15,29.1,592.049715427,4.57584348,1
642.266666667,29.1,592.155006661,4.628746095,1
642.383333333,29.1,591.093515855,5.063540994,1
642.733333333,29.1,590.812757186,5.185994686,1
643.116666667,29.1,590.954511535,5.141719217,1
643.483333333,29.1,591.798372924,5.230487344,1
643.866666667,29.1,591.991293901,5.248308239,1
644.283333333,29.1,591.989110169,5.265552926,1
644.7,29.1,591.864839365,5.297837845,1
645.233333333,29.1,591.658013911,5.303898899,1
645.75,29.1,591.614274248,5.319962147,1
646.266666667,29.1,591.457661874,5.260750614,1
646.8,29.1,591.407036895,5.28533647,1
647.316666667,29.1,591.42922597,5.244111292,1
647.85,29.1,591.29954488,5.275954824,1
648.366666667,29.1,591.265334608,5.280232767,1
648.883333333,29.1,591.158166312,5.120549248,1
649.4,29.1,591.401081179,5.128001364,1
649.916666667,29.1,591.672096808,5.08641576,1
650.45,29.1,591.742868324,5.088036995,1
650.966666667,29.1,591.623934558,5.089924699,1
651.5,29.1,591.572432319,5.050474641,1
652.033333333,29.1,591.538491662,5.01975074,1
652.583333333,29.1,591.469152236,4.835515861,1
653.133333333,29.1,591.43912798,4.851164615,1
653.666666667,29.1,591.45273925,4.857595753,1
654.15,29.1,591.513174033,4.674033968,1
654.483333333,29.1,591.651404459,4.635002895,1
654.816666667,29.1,591.65430587,4.632226882,1
655.1,29.1,591.653018425,4.614176488,1
655.316666667,29.1,592.019696916,4.564502956,1
655.516666667,29.1,592.304888283,4.576072344,1
655.7,29.1,592.725090864,4.622475815,1
655.883333333,29.1,593.042790451,4.61322455,1
656.016666667,29.1,593.03304951,4.736973773,1
656.183333333,29.1,592.967083797,4.762200062,1
656.5,29.1116666667,592.55963942,4.093521125,1
656.633333333,29.1233333333,592.58044078,4.159730433,1
657.216666667,29.135,592.373429291,4.222065562,1
657.65,29.1466666667,592.265890664,4.258636753,1
657.733333333,29.1583333333,592.174150807,4.289388681,1
658.066666667,29.17,592.062466988,4.211951274,1
658.383333333,29.1816666667,591.931841535,4.203919089,1
658.7,29.1933333333,591.861641413,4.199923088,1
658.983333333,29.205,592.262469453,4.060737784,1
659.133333333,29.2166666667,592.33538073,4.063189556,1
659.266666667,29.2283333333,592.273394734,3.956898121,1
659.4,29.24,592.178320984,4.056678093,1
659.483333333,29.2516666667,592.065186504,4.066006668,1
659.583333333,29.2633333333,591.887719087,4.044263364,1
659.683333333,29.275,592.535722452,3.933168377,1
659.766666667,29.2866666667,592.407976063,3.91049725,1
659.8,29.2983333333,592.091979917,3.892717255,1
659.9,29.31,592.873324266,3.775061651,1
659.85,29.3216666667,592.310862853,3.711820774,1
660.133333333,29.3333333333,592.450237129,3.683921023,1
660.616666667,29.345,592.503255483,3.669658833,1
661.15,29.3566666667,592.409857018,3.614158322,1
661.833333333,29.3683333333,592.317891222,3.636838986,1
662.533333333,29.38,592.509490793,3.469502862,1
663.316666667,29.3916666667,592.168516582,3.330525919,1
664.116666667,29.4033333333,592.108225601,3.267282372,1
664.9,29.415,593.16345456,2.840273451,1
665.483333333,29.4266666667,593.130122748,2.73424718,1
666.016666667,29.4383333333,593.224091199,2.645643803,1
666.583333333,29.45,592.437519176,2.771038963,1
667.233333333,29.4616666667,592.734711046,3.316314377,1
667.8,29.4733333333,592.567631954,3.978750251,1
668.266666667,29.485,592.282352082,4.260221923,1
668.733333333,29.4966666667,593.246907803,4.487896886,1
669.133333333,29.5083333333,593.251383271,4.503765318,1
669.533333333,29.52,593.379500625,4.687501394,1
669.933333333,29.5316666667,593.141944382,4.670545451,1
670.35,29.5433333333,592.982507177,4.867267069,1
670.75,29.555,593.148610124,4.85037336,1
671.2,29.5666666667,593.250465448,4.874705149,1
671.666666667,29.5783333333,592.772233043,5.164219344,1
672.133333333,29.59,592.539424139,5.368883172,1
672.6,29.6016666667,592.754101967,5.492342915,1
672.733333333,29.6133333333,592.533673772,5.55221644,1
672.883333333,29.625,592.768946598,5.59224009,1
673.033333333,29.6366666667,592.856664002,5.586026013,1
673.2,29.6483333333,592.863244613,5.612912055,1
673.35,29.66,592.518918438,5.662753248,1
673.45,29.6716666667,592.702860411,5.703841811,1
673.55,29.6833333333,592.318270913,5.825605133,1
673.666666667,29.695,592.223524417,6.071312717,1
673.816666667,29.7066666667,592.193465117,6.53815292,1
674.016666667,29.7183333333,592.078316899,6.562680331,1
674.216666667,29.73,592.657179373,6.662964503,1
674.433333333,29.7416666667,592.630938491,6.969744142,1
674.616666667,29.7533333333,591.329236362,7.116448193,1
674.816666667,29.765,590.701578179,7.07134802,1
675.033333333,29.7766666667,590.349018029,7.105215784,1
675.25,29.7883333333,590.44564413,7.224576074,1
675.466666667,29.8,589.947384124,8.220756002,1
675.55,29.8,590.20786361,8.57413711,1
675.65,29.8,591.274010916,8.519558369,1
675.783333333,29.8,591.146308053,8.523587726,1
675.416666667,29.8,591.149863758,8.490636398,1
675.033333333,29.8,590.955349882,8.462708868,1
674.333333333,29.8,591.076106486,8.51280906,1
673.633333333,29.8,591.347787003,8.714705765,1
672.866666667,29.8,592.119143516,9.58686855,1
672.133333333,29.8,592.367372258,9.720434833,1
671.516666667,29.8,592.349981849,9.739666546,1
670.9,29.8,592.400621961,9.742075378,1
670.3,29.8,592.541779048,9.841325364,1
669.7,29.8,592.481752037,10.010785527,1
669.116666667,29.8,593.206042979,10.593876798,1
668.65,29.8,593.257122701,10.665978059,1
668.183333333,29.8,593.392733212,11.144451391,1
667.7,29.8,594.132667998,11.179584435,1
667.2,29.8,594.320405635,11.217875942,1
666.7,29.8,594.459560772,11.263013591,1
666.133333333,29.8,594.35667663,11.253593588,1
665.366666667,29.8,594.057870968,11.486598468,1
664.533333333,29.8,593.324802989,11.615867722,1
663.7,29.8,592.817278779,11.887075176,1
662.85,29.8,592.758364784,11.890846133,1
661.916666667,29.8,592.878498364,11.956401588,1
660.966666667,29.8,592.981987709,11.96347934,1
660.033333333,29.8,592.966345045,11.97713337,1
659.05,29.8,593.347595956,12.12546368,1
658.066666667,29.8,593.385979208,12.071610848,1
657.083333333,29.8,593.405094235,11.863103162,1
656,29.8,593.351455795,11.786340235,1
654.933333333,29.8,593.578190475,11.382062569,1
653.866666667,29.8,593.976624697,11.067114976,1
652.8,29.8,593.156402195,10.844443715,1
651.833333333,29.8,593.440779552,10.817983671,1
650.916666667,29.8,593.392945897,10.654543466,1
650.066666667,29.8,593.756215269,10.639678986,1
649.2,29.8,593.946147056,10.427696417,1
648.333333333,29.8,593.934935018,10.435863054,1
647.366666667,29.8,593.648285936,10.405518549,1
646.383333333,29.8,594.108512734,10.119547142,1
645.4,29.8,594.206725336,9.925955327,1
644.45,29.8,593.956695184,9.805314042,1
643.833333333,29.8,594.213716997,9.762455481,1
643.2,29.8,594.064017837,9.739906761,1
642.566666667,29.8,593.976197556,9.751452966,1
641.916666667,29.8,593.95900053,9.716909692,1
641.266666667,29.8,594.136432301,9.682261563,1
640.65,29.8,594.036142972,9.640040161,1
640.033333333,29.8,594.378138068,9.5189382,1
639.4,29.8,594.440742007,9.324946498,1
638.933333333,29.8,594.562626598,8.864311044,1
638.133333333,29.8,594.64258612,8.829338864,1
637.35,29.8,594.236464778,9.012329039,1
636.583333333,29.8,594.155946463,8.789454624,1
635.883333333,29.8,595.250347413,8.634392176,1
635.2,29.8,595.509653809,8.58028539,1
634.266666667,29.8,595.617973987,8.547653688,1
633.383333333,29.8,595.504336633,8.302496574,1
632.5,29.8,596.000204855,7.225690873,1
631.666666667,29.8,596.012202055,6.622100883,1
630.916666667,29.8,595.274732536,6.550887438,1
630.083333333,29.8,595.594751208,6.440869604,1
629.75,29.8,595.62114574,6.408274186,1
629.816666667,29.8,595.862794122,6.383845253,1
629.95,29.8,595.861465647,6.329358952,1
630.1,29.8,596.869374337,7.533066735,1
630.316666667,29.8,596.385020117,7.832998895,1
630.583333333,29.8,596.070484518,7.689963563,1
630.783333333,29.8,596.040742178,7.65988855,1
630.983333333,29.8,596.014535654,7.651426714,1
631.166666667,29.8,595.90384358,7.454280608,1
631.35,29.8,596.024733935,7.259663505,1
631.516666667,29.8,595.486079846,6.669374819,1
631.566666667,29.8,595.161674283,6.917545685,1
631.766666667,29.8,594.997604773,6.503132169,1
632.066666667,29.8,594.442933492,6.492871971,1
632.416666667,29.8,594.29350063,6.474195372,1
632.766666667,29.8,594.213878142,6.44008349,1
633.116666667,29.8183333333,594.45060148,6.432463606,1
633.483333333,29.8366666667,594.623170841,6.215117991,1
633.866666667,29.855,595.312888067,6.08825135,1
634.166666667,29.8733333333,595.785383194,5.808713021,1
634.483333333,29.8916666667,595.82534994,5.798294536,1
634.783333333,29.91,595.448596765,5.814362098,1
635.1,29.9283333333,595.324101067,5.802417616,1
635.4,29.9466666667,595.504902943,5.802004107,1
635.75,29.965,595.550787833,5.676065711,1
636.1,29.9833333333,595.559626231,5.665480329,1
636.483333333,30.0016666667,595.585620994,5.823776188,1
636.85,30.02,595.840529734,6.018563197,1
637.216666667,30.0383333333,595.177948714,6.120128886,1
637.583333333,30.0566666667,594.924726,6.182547785,1
637.95,30.075,595.150213402,6.384700549,1
638.316666667,30.0933333333,594.864871144,6.693461905,1
638.633333333,30.1116666667,594.750265689,6.841276378,1
638.916666667,30.13,594.495256322,6.835495399,1
639.3,30.1483333333,594.65948517,6.910275585,1
639.633333333,30.1666666667,593.606914983,7.381798227,1
640.016666667,30.185,593.818836663,7.698052404,1
640.4,30.2033333333,593.842854348,7.691896677,1
640.75,30.2216666667,593.856502486,7.664660755,1
641.033333333,30.24,593.781831272,7.656344813,1
641.066666667,30.2583333333,593.805698971,7.646205828,1
641.333333333,30.2766666667,593.756234976,7.647952487,1
641.6,30.295,593.828052193,7.649147146,1
641.866666667,30.3133333333,593.834968149,7.76369288,1
642.116666667,30.3316666667,593.699505859,7.777506428,1
642.466666667,30.3533333333,593.715818768,7.780092657,1
642.866666667,30.375,593.826975444,7.764119109,1
643.266666667,30.3966666667,593.557135969,7.740396668,1
643.5,30.4183333333,593.43137075,7.745876805,1
