mem,temp,acc,rot,class
673.283333333,27.2,595.296305654,10.493373125,1
674,27.2,595.347729552,10.327938064,1
674.7,27.2,595.475458291,10.283911296,1
675.416666667,27.2,595.531081233,10.150726726,1
676.116666667,27.2,595.134234867,9.902076969,1
676.883333333,27.2,594.980384401,9.934810483,1
677.65,27.2,594.523417567,9.873645129,1
678.116666667,27.235,593.917492489,9.370684094,1
678.633333333,27.27,593.989688832,9.39501007,1
679.133333333,27.305,594.055181878,9.381479901,1
679.683333333,27.34,593.663781197,10.418668798,1
680.316666667,27.375,593.669855912,10.676276809,1
680.966666667,27.41,593.467881135,10.554368767,1
681.666666667,27.445,594.325032822,11.166321049,1
682.366666667,27.48,592.480027026,12.028759571,1
683.066666667,27.515,592.060996433,12.268554022,1
683.766666667,27.55,592.230168287,12.301166662,1
684.483333333,27.585,591.588419112,12.100896796,1
685.183333333,27.62,591.821477109,12.043358757,1
685.883333333,27.655,591.690678208,11.883727602,1
686.583333333,27.69,591.00405451,11.971769736,1
687.266666667,27.725,591.28441103,12.454907401,1
687.916666667,27.76,591.334959109,12.481070122,1
688.533333333,27.795,591.640432929,12.50162863,1
688.916666667,27.83,591.664642459,12.348079682,1
689.183333333,27.865,592.130207694,12.334147401,1
689.45,27.9,592.004957893,12.049073708,1
689.766666667,27.935,592.075807653,11.977776641,1
690.083333333,27.97,592.749006048,11.202915139,1
690.383333333,28.005,592.756231953,11.429089433,1
689.933333333,28.04,593.036020489,11.334815359,1
689.7,28.075,594.182172248,12.234002778,1
689.4,28.11,594.188837633,12.445672918,1
689.1,28.145,594.211859353,13.452325282,1
688.766666667,28.18,594.265647801,13.469393824,1
688.25,28.215,594.141273058,13.419758908,1
687.7,28.25,593.854980048,13.38868105,1
687.166666667,28.285,593.539652954,13.318050004,1
686.633333333,28.32,593.653093588,13.211473573,1
686.083333333,28.355,593.255826359,12.914416489,1
685.55,28.39,593.547337414,12.754869646,1
685,28.425,592.774021415,11.951066604,1
684.466666667,28.46,593.413355573,11.768298165,1
683.916666667,28.495,593.58443499,11.472620471,1
683.416666667,28.53,593.828222314,11.200400281,1
682.983333333,28.565,593.735117863,11.123581874,1
682.65,28.6,594.097202284,10.955420736,1
682.3,28.635,594.161002836,10.890471107,1
682.3,28.67,594.620039643,10.914089223,1
681.966666667,28.705,594.754026231,10.815490313,1
681.583333333,28.74,594.5898306,10.759123946,1
681.483333333,28.775,594.631674987,11.048712396,1
681.35,28.81,594.793445269,11.039510555,1
681.05,28.845,594.818854729,11.025406634,1
680.75,28.88,594.957166221,11.025055521,1
680.133333333,28.915,595.106512955,11.001371365,1
679.816666667,28.95,595.176154929,11.012036658,1
679.433333333,28.985,595.140894884,11.012304848,1
679.033333333,29.02,595.152728015,11.01212084,1
678.633333333,29.055,595.276811457,11.001488944,1
678.25,29.09,595.187582922,11.023192072,1
677.866666667,29.125,595.238536568,11.026046951,1
677.483333333,29.16,595.891975546,11.543982893,1
677.183333333,29.195,595.624676606,11.760966106,1
676.9,29.23,595.904252772,11.883729687,1
676.766666667,29.265,595.845949778,11.776215656,1
676.633333333,29.3,595.707109927,11.622329491,1
676.8,29.3,595.919747545,11.672094517,1
676.933333333,29.3166666667,595.950908028,11.579417793,1
677.05,29.3333333333,595.973452949,11.602007092,1
677.116666667,29.35,596.202881379,10.569934967,1
677.083333333,29.3666666667,596.324535373,10.352147082,1
677.033333333,29.3833333333,596.21995777,10.108508159,1
676.933333333,29.4,595.394697541,9.381298531,1
676.833333333,29.4166666667,596.420018958,8.3000722,1
676.75,29.4333333333,596.647464062,8.098165453,1
676.65,29.45,596.890868276,8.023823151,1
676.483333333,29.4666666667,597.262992254,7.902105751,1
676.333333333,29.4833333333,597.192131224,7.839570736,1
676.183333333,29.5,597.114996199,8.084398341,1
676.033333333,29.5166666667,597.793551457,8.73544112,1
675.9,29.5333333333,598.43658026,8.923454366,1
675.75,29.55,597.99876797,9.021895304,1
675.6,29.5666666667,597.734559754,8.991084709,1
675.433333333,29.5833333333,597.225844288,8.563464823,1
675.3,29.6,597.030509648,8.610700901,1
675.283333333,29.6233333333,598.091963389,9.945436493,1
675.283333333,29.6466666667,597.626804336,10.721842997,1
675.25,29.67,597.16610427,11.393709739,1
675.183333333,29.6933333333,598.223524122,11.120656042,1
675.883333333,29.7166666667,597.639352378,11.346241523,1
676.383333333,29.74,596.1981761,10.488676719,1
676.9,29.7633333333,597.615763183,10.605516829,1
677.4,29.7866666667,597.907600322,9.748556531,1
677.9,29.81,597.965212477,9.736867923,1
678.5,29.8333333333,597.736245577,9.975544653,1
679.1,29.8566666667,597.731814875,10.006425112,1
679,29.88,597.741390888,11.435711196,1
679.233333333,29.9033333333,597.918981714,11.640706156,1
679.583333333,29.9266666667,598.430190073,11.819580943,1
679.933333333,29.95,598.435088352,11.837654667,1
680.266666667,29.9733333333,598.541866421,11.894430576,1
680.516666667,29.9966666667,598.596651524,11.916280602,1
680.75,30.02,598.528505888,11.90270262,1
680.933333333,30.0433333333,599.857457744,13.434375756,1
681.033333333,30.0666666667,600.491747999,14.672043205,1
681.033333333,30.09,599.477603584,16.572212144,1
681.05,30.1133333333,599.474622881,16.544611736,1
681.05,30.1366666667,599.140220079,16.43316702,1
681.083333333,30.16,599.566611428,16.702076369,1
681.033333333,30.1833333333,599.169481134,16.975700881,1
681.016666667,30.2066666667,599.776202491,16.825921339,1
681.016666667,30.23,599.370917109,16.836243026,1
681.116666667,30.2533333333,599.354450598,16.878751963,1
681.6,30.2766666667,599.218933267,16.894453702,1
682.1,30.3,599.165746743,16.923357348,1
682.683333333,30.3233333333,599.091404146,16.91577876,1
683.233333333,30.3466666667,599.047413702,16.921860635,1
683.8,30.37,599.709793265,17.241972182,1
684.383333333,30.3933333333,599.797335094,17.321401686,1
684.966666667,30.4166666667,599.597375461,17.327437132,1
685.566666667,30.44,599.568114918,17.321545841,1
686.15,30.4633333333,599.004026378,16.68737215,1
686.5,30.4866666667,599.219246791,16.464866494,1
686.266666667,30.51,598.986702115,16.333514238,1
685.55,30.5333333333,599.095832807,16.247873837,1
684.883333333,30.5683333333,599.079642405,16.236215491,1
684.216666667,30.6033333333,598.958183404,16.204912832,1
683.566666667,30.6216666667,598.919318321,16.199014613,1
682.916666667,30.64,599.008970021,16.200334194,1
682.266666667,30.6583333333,598.961358818,16.207095648,1
681.633333333,30.6766666667,598.788028427,16.180234483,1
681,30.695,599.757196367,16.419396173,1
680.35,30.7133333333,599.651870058,16.46510107,1
679.7,30.7316666667,599.520183486,16.509620568,1
679.183333333,30.75,600.631429239,16.783268788,1
678.75,30.7683333333,600.354643502,17.440377743,1
678.366666667,30.7866666667,600.541980289,17.842304996,1
678.116666667,30.805,599.93301679,18.199939708,1
677.866666667,30.8233333333,601.636180601,18.798645544,1
677.616666667,30.8416666667,600.57368493,18.472034765,1
677.416666667,30.86,600.088536713,17.737688582,1
677.283333333,30.8783333333,600.448467247,17.581060421,1
677.2,30.8966666667,600.380128889,17.591069469,1
677.216666667,30.915,600.389931445,17.698459112,1
677.233333333,30.9333333333,600.378275417,17.695113595,1
677.1,30.945,599.440473557,16.188735193,1
676.966666667,30.9566666667,599.327159233,15.31654238,1
676.9,30.9683333333,599.894362729,14.724829392,1
676.816666667,30.98,598.284792308,14.792431191,1
676.716666667,30.9916666667,599.110273424,14.876914815,1
676.533333333,31.0033333333,600.167472512,14.812930864,1
676.366666667,31.015,598.104756367,14.996167544,1
676.2,31.0266666667,597.945593237,15.109063255,1
676.033333333,31.0383333333,597.672364947,15.308407065,1
675.866666667,31.05,598.12393015,15.090289205,1
675.7,31.0616666667,598.114660943,15.173634231,1
676.233333333,31.0733333333,597.731618146,14.996654094,1
676.366666667,31.085,596.466165438,15.677321257,1
676.383333333,31.0966666667,596.287514218,15.870914559,1
676.4,31.1083333333,596.123084619,16.121374047,1
676.433333333,31.12,595.568158522,16.31013375,1
676.533333333,31.1316666667,594.525654194,17.140041199,1
676.65,31.1433333333,594.630541033,17.240416473,1
676.8,31.155,594.522186853,16.693553965,1
676.966666667,31.1666666667,593.950545492,15.960108035,1
677.133333333,31.1783333333,594.770844219,14.116573296,1
677.3,31.19,594.904287968,14.248225224,1
677.466666667,31.2016666667,594.830015151,14.908235097,1
677.616666667,31.2133333333,594.895517121,15.135030304,1
677.833333333,31.225,594.883386332,15.072120248,1
678.016666667,31.2366666667,594.045443576,15.064436604,1
678.183333333,31.2483333333,593.986465519,15.363237306,1
678.283333333,31.26,594.077793606,15.499534073,1
677.983333333,31.2716666667,594.234868226,15.583653449,1
677.666666667,31.2833333333,594.132726467,15.637576728,1
677.266666667,31.295,594.215651526,15.780523095,1
676.916666667,31.3066666667,594.419074446,15.902610415,1
676.55,31.3183333333,594.409095376,15.77723815,1
676.15,31.33,595.092835816,16.367754026,1
675.166666667,31.3416666667,595.41905581,16.459791519,1
674.333333333,31.3533333333,596.031961112,17.01734907,1
673.516666667,31.365,596.466088362,17.259365375,1
672.85,31.3766666667,596.640596033,17.49870708,1
672.75,31.3883333333,596.699656407,17.501989248,1
672.85,31.4,596.746345377,17.503142408,1
672.883333333,31.4,596.773707992,17.537265188,1
672.916666667,31.4,596.768983885,17.557831765,1
672.95,31.4,596.595391661,17.71900962,1
673.016666667,31.4,596.432031943,17.708203402,1
673.083333333,31.4,596.606191969,17.725345865,1
673.15,31.4,596.86598872,17.670865176,1
673.216666667,31.4,596.1238666,17.398317846,1
673.3,31.4,596.267354778,17.32858777,1
673.366666667,31.4,596.346310386,17.287789352,1
673.283333333,31.4,595.46490502,16.959455123,1
673.15,31.4,595.904242487,17.272777744,1
673,31.4,595.717283232,16.981183455,1
672.716666667,31.4,596.209960949,16.767238618,1
672.416666667,31.4,594.103452697,15.855385386,1
672.133333333,31.4,594.785706908,15.424304057,1
671.8,31.4,594.906412771,15.429189216,1
671.4,31.4,594.930704683,15.423298492,1
670.966666667,31.4,595.135721567,15.413883969,1
670.516666667,31.4,596.841357797,17.219200473,1
670.033333333,31.4,597.025506273,17.252305771,1
669.583333333,31.4,596.793039028,17.169040271,1
669.133333333,31.4,597.134561366,17.060039577,1
668.633333333,31.4,596.913251535,16.904748234,1
668.15,31.4,597.654484966,16.632209549,1
667.7,31.4,598.203374116,18.09358254,1
667.166666667,31.4,597.152251124,17.958938636,1
666.866666667,31.4,597.413155885,17.668373448,1
666.683333333,31.4,597.502214895,17.67515958,1
666.55,31.4,598.002227441,17.512363454,1
666.416666667,31.4,597.884955755,17.565439109,1
666.283333333,31.4,597.85774291,17.496861132,1
666.15,31.4,598.415426438,16.282226572,1
666.083333333,31.4,599.056539386,15.722046549,1
666.016666667,31.4,598.248490151,15.459538262,1
665.966666667,31.4,598.34426064,15.327680639,1
665.933333333,31.4,599.021850577,15.155276232,1
665.9,31.4,600.036900655,14.541273725,1
665.866666667,31.4,599.979797707,14.478389158,1
665.816666667,31.4,598.327306266,13.608605745,1
665.633333333,31.4,598.590870737,13.160077628,1
665.5,31.4,598.774801654,13.121802269,1
665.366666667,31.4,598.817296125,12.938907325,1
665.216666667,31.4,598.965616557,12.253569011,1
665.066666667,31.4,598.451715234,11.804732295,1
664.883333333,31.4,598.95774677,11.614217713,1
664.716666667,31.4,599.603354196,11.59792436,1
664.566666667,31.4,600.110091805,11.488502844,1
664.316666667,31.4,599.920079196,11.337133142,1
663.883333333,31.4,599.897402782,11.238518511,1
663.516666667,31.4,600.236186126,11.360072889,1
663.15,31.4,600.414753468,11.756803278,1
662.766666667,31.4,599.851945479,11.793606739,1
662.416666667,31.4,598.97256949,12.227561471,1
662.083333333,31.4,599.54855531,12.855059128,1
662.333333333,31.4,599.59754313,12.91541799,1
662.416666667,31.4,598.726473106,13.06939362,1
662.366666667,31.4,598.099576169,12.920131636,1
662.466666667,31.4,597.837005501,12.75488791,1
662.55,31.4,597.846036084,12.812322587,1
662.733333333,31.4,597.884432496,12.857536262,1
662.933333333,31.4,597.853855672,12.85826822,1
663.083333333,31.4,597.835873581,12.810786425,1
663.216666667,31.4,597.69085346,12.865242731,1
663.366666667,31.4,597.818062618,12.93471939,1
663.516666667,31.4,597.694842864,13.120109641,1
663.683333333,31.4,597.34461362,13.354695982,1
663.816666667,31.4,596.692562861,13.540687861,1
663.966666667,31.4,596.748497291,13.650550208,1
664.133333333,31.4,596.577588878,14.011380311,1
664.3,31.4,597.071912614,14.139673584,1
664.45,31.4,596.55295179,13.333214393,1
664.6,31.4,597.343040025,13.859557457,1
664.75,31.4,597.381811213,13.776494564,1
664.916666667,31.4,597.912366634,14.001293835,1
665.05,31.4,597.925235664,14.03561897,1
665.183333333,31.4,597.829575746,14.086358032,1
665.316666667,31.4,597.831979297,14.10468219,1
665.433333333,31.4,597.650476917,14.093055428,1
665.483333333,31.4,595.913334134,12.140570445,1
665.55,31.4,595.827756117,12.062966889,1
665.616666667,31.4,595.872688943,12.057556829,1
665.666666667,31.4,595.798818881,12.05519719,1
665.75,31.4,595.742457294,12.065733794,1
665.816666667,31.4,595.539155663,12.054686787,1
665.866666667,31.4,594.872689793,11.176205882,1
666.016666667,31.4,596.228844445,11.250419441,1
665.916666667,31.4,596.889609219,11.462306835,1
665.716666667,31.4,596.45719368,11.485737699,1
665.466666667,31.4,595.918478347,11.505395834,1
665.216666667,31.4,595.311518833,11.706788347,1
664.966666667,31.4,595.328435754,11.95616273,1
664.8,31.4,594.949463631,12.384037973,1
664.666666667,31.4183333333,595.310293371,12.0701871,1
664.55,31.4366666667,596.003573175,11.939886486,1
664.483333333,31.455,595.927089808,11.991904332,1
664.5,31.4733333333,595.702085529,12.120529714,1
664.616666667,31.4916666667,596.021047279,12.089716614,1
664.716666667,31.51,595.932911933,12.348155336,1
664.816666667,31.5283333333,596.327006176,12.393547221,1
665.066666667,31.5466666667,595.33679458,12.456853361,1
665.266666667,31.565,595.390024845,12.708755777,1
665.466666667,31.5833333333,595.024800756,13.103223074,1
665.683333333,31.6016666667,594.973154015,13.648604388,1
665.9,31.62,595.601800838,13.811136307,1
666.05,31.6383333333,595.494867581,13.885934397,1
666.25,31.6566666667,595.134774769,13.771672688,1
666.483333333,31.675,594.829346079,13.617567696,1
666.833333333,31.6933333333,594.868652411,13.599600123,1
667.35,31.7116666667,594.546607106,13.679638176,1
667.766666667,31.73,594.392177035,13.481400348,1
668.183333333,31.7483333333,594.396458985,12.991133182,1
668.55,31.7666666667,594.862312984,12.853158863,1
668.866666667,31.785,594.742025019,12.423670435,1
669.2,31.8033333333,593.547372479,11.203234232,1
669.533333333,31.8216666667,593.838162789,11.416655062,1
669.866666667,31.84,594.155222368,10.753024648,1
670.333333333,31.8583333333,594.509306985,11.344889716,1
670.65,31.8766666667,594.877605039,11.380041503,1
670.983333333,31.895,594.936835516,11.294893156,1
671.283333333,31.9133333333,595.071055792,11.241742773,1
671.583333333,31.9316666667,595.188482252,11.264843134,1
671.916666667,31.95,595.298801529,11.303362328,1
672.266666667,31.9683333333,595.56661782,11.112490555,1
672.6,31.9866666667,595.422705106,11.115191344,1
672.933333333,32.005,595.451613577,11.095771349,1
673.25,32.0233333333,595.807501201,11.22319857,1
673.6,32.0416666667,596.68315035,11.46082055,1
673.95,32.06,596.563983565,11.441162662,1
674.333333333,32.0783333333,596.47554431,11.286184557,1
674.75,32.0966666667,595.588400721,11.287332746,1
675.166666667,32.115,596.062891395,11.479823496,1
675.566666667,32.1333333333,595.151733106,11.1573177,1
675.933333333,32.1516666667,595.081115802,11.396114948,1
676.183333333,32.17,595.190778972,11.638426823,1
676.45,32.1883333333,595.04910956,11.668189921,1
676.7,32.2066666667,595.035380782,11.890325131,1
676.933333333,32.225,595.356388025,12.304554649,1
677.166666667,32.2433333333,595.355024646,12.347644313,1
677.4,32.2616666667,595.096740917,12.475041474,1
677.666666667,32.28,595.609658346,12.552962173,1
677.966666667,32.2983333333,596.050737385,12.593205753,1
678.266666667,32.3166666667,596.501702156,12.697727886,1
678.55,32.335,596.682387634,12.773485179,1
678.85,32.3533333333,596.958359495,12.88294877,1
679.2,32.3716666667,597.305947865,12.067690634,1
679.483333333,32.39,595.983937817,12.049260894,1
679.766666667,32.4083333333,596.123394817,11.981199039,1
679.883333333,32.4266666667,596.766802866,11.896784421,1
680.333333333,32.445,597.162007399,11.800496228,1
680.716666667,32.4633333333,597.34714438,11.676424754,1
681.083333333,32.4816666667,597.472120383,11.473709748,1
681.35,32.5,598.357718656,11.495800348,1
681.6,32.5,598.339893983,11.511520224,1
681.833333333,32.5,598.333387265,11.508597087,1
681.983333333,32.5,598.5169456,11.348347795,1
682.033333333,32.5,598.335640294,11.604534537,1
681.883333333,32.5,598.075876224,11.450575766,1
681.783333333,32.5,598.208263124,11.163447692,1
681.8,32.5,598.043797504,11.042536717,1
681.8,32.5,598.707498989,10.923853008,1
681.783333333,32.5,598.775282575,10.643669403,1
681.75,32.5,599.154149472,10.251217068,1
681.716666667,32.5,598.30966353,10.147293122,1
681.783333333,32.5,597.98294795,10.399094883,1
681.983333333,32.5,597.991309478,11.027224455,1
682.1,32.5,597.48404843,11.077885944,1
682.183333333,32.5,598.04092947,11.544838437,1
682.283333333,32.5,597.903479265,11.710091649,1
681.466666667,32.5,598.313787297,11.649451541,1
680.916666667,32.5,598.292586973,11.664902814,1
680.666666667,32.5,598.150925244,11.664834631,1
680.566666667,32.5,598.595858324,11.859707016,1
680.616666667,32.5,598.583278951,11.867357039,1
680.733333333,32.5,598.247967935,11.914038491,1
680.966666667,32.5,598.429235215,11.561228143,1
681.166666667,32.5,597.919845417,11.701524942,1
681.25,32.5,597.200040527,11.354940278,1
681.15,32.5,597.071545832,11.354452673,1
681.066666667,32.5,597.024522753,11.343597509,1
680.983333333,32.5,596.842968345,11.360277342,1
680.883333333,32.5,596.653895215,11.680509062,1
680.716666667,32.5,596.788254577,11.707980235,1
680.55,32.5,596.880380722,11.769835786,1
680.366666667,32.5,596.659463926,11.851924518,1
680.2,32.5,596.942623837,11.948703943,1
680.033333333,32.5,596.717749983,11.594993663,1
679.9,32.5,596.494126283,11.230942191,1
679.75,32.5,596.637946348,11.351489973,1
679.566666667,32.5,598.120484099,11.687529938,1
679.316666667,32.5,598.403621481,11.548838984,1
679.133333333,32.5,598.082421116,11.282086733,1
679.15,32.5,598.172504138,10.968784514,1
679.216666667,32.5,598.279654726,10.676175065,1
679.366666667,32.5,598.014126824,10.214977246,1
679.4,32.5,598.062458529,10.188639156,1
679.5,32.5,598.147405897,10.284700087,1
679.616666667,32.5,597.778360104,10.031629141,1
679.766666667,32.5,597.666531044,10.185171621,1
680.033333333,32.5,597.758856523,10.222935891,1
680.383333333,32.5,597.391550563,10.173343286,1
680.683333333,32.5,597.032173133,10.141543166,1
681,32.5,596.622348958,10.259726674,1
681.316666667,32.5,596.522721277,10.215191091,1
681.633333333,32.5,596.338530802,10.146074259,1
681.9,32.5,595.886915713,10.060542089,1
682.216666667,32.5,596.374221622,9.986956326,1
682.533333333,32.5,596.055276632,9.61868848,1
683.016666667,32.5,595.647344467,9.380379214,1
683.166666667,32.5,595.637294097,9.360850383,1
683.383333333,32.5,596.226335526,9.168183948,1
683.616666667,32.5,596.093606049,9.108566985,1
683.85,32.5,595.446531994,8.600822104,1
684.083333333,32.5,595.528883842,8.625567595,1
684.383333333,32.5,595.36568055,8.735037111,1
684.7,32.5,595.396179902,8.765844838,1
685.183333333,32.5,595.615737007,8.320198827,1
685.783333333,32.5,595.411823432,8.365782702,1
686.35,32.5,595.471642791,8.371431618,1
686.8,32.5,595.702710053,8.356562946,1
687.316666667,32.5,595.698002844,8.35347324,1
687.816666667,32.5,595.702414626,8.34834561,1
688.333333333,32.5,595.722034363,8.344191285,1
688.85,32.5,596.654668892,7.880815492,1
689.266666667,32.5,596.45901162,7.413584388,1
689.016666667,32.5133333333,596.483278773,6.773798191,1
688.983333333,32.5266666667,596.614231416,6.914154359,1
